# PAO in Ethanol D1,,
# Wavelength (nm),Abs,
800,0.0008273264975,
799,0.0006153309951,
798,0.0009114169516,
797,0.0005976521061,
796,0.001674187952,
795,0.0009403673466,
794,0.001288545784,
793,0.0008839729708,
792,6.09657327E-5,
791,0.001563164173,
790,0.001607227372,
789,0.001703631016,
788,0.0009567371453,
787,0.001729437616,
786,0.001265413477,
785,0.000899354869,
784,0.001618789393,
783,0.001490921713,
782,0.0007493459852,
781,0.001036415575,
780,0.00123690872,
779,0.0008913914789,
778,0.001109931967,
777,0.0008201943128,
776,0.001978537999,
775,0.0003371402563,
774,0.001383164898,
773,0.002042018808,
772,0.0009769991739,
771,0.001358781126,
770,0.001047002384,
769,0.001959763467,
768,0.0009339597309,
767,0.001579869189,
766,0.001385553973,
765,0.001626506331,
764,0.0009867283516,
763,0.001159996609,
762,0.001196309458,
761,0.001678579603,
760,0.001008911757,
759,0.001599900541,
758,0.00134333095,
757,0.001239141217,
756,0.001380204456,
755,0.001239089295,
754,0.001201423118,
753,0.00114930328,
752,0.001713896287,
751,0.00168894825,
750,0.001323129749,
749,0.0008021180984,
748,0.0007462861831,
747,0.0008986545145,
746,0.001753972145,
745,0.001160593587,
744,0.001768423244,
743,0.001062208437,
742,0.001399914967,
741,0.001611462445,
740,0.001414613915,
739,0.001935685286,
738,0.001611930085,
737,0.001303708414,
736,0.001722836401,
735,0.001489337301,
734,0.0009513928671,
733,0.001778715989,
732,0.001294257701,
731,0.001336138463,
730,0.001559345284,
729,0.001798522542,
728,0.001348368474,
727,0.0009491618257,
726,0.001120676287,
725,0.001247630222,
724,0.001637367415,
723,0.001780327526,
722,0.001691520913,
721,0.001401109505,
720,0.001447909279,
719,0.001747318543,
718,0.001781393192,
717,0.001950610545,
716,0.001602004981,
715,0.001781003317,
714,0.001587221748,
713,0.001896762638,
712,0.001845521154,
711,0.001887039049,
710,0.001775233075,
709,0.001949258382,
708,0.001521703205,
707,0.001904900535,
706,0.002061473206,
705,0.00190609647,
704,0.001762913074,
703,0.001832523267,
702,0.001945904107,
701,0.001666704076,
700,0.001991852419,
699,0.001798366546,
698,0.001742926193,
697,0.002130611101,
696,0.001851942274,
695,0.001755063771,
694,0.001801199862,
693,0.001558799646,
692,0.001936205314,
691,0.001954901032,
690,0.001707555261,
689,0.001743264147,
688,0.001829689718,
687,0.001597536146,
686,0.001865954604,
685,0.00192489475,
684,0.001350056264,
683,0.00180969981,
682,0.001654179185,
681,0.001593509107,
680,0.001607305254,
679,0.001671251608,
678,0.001827532193,
677,0.001673252438,
676,0.001911764499,
675,0.001478012418,
674,0.001979630208,
673,0.001776194782,
672,0.001341331634,
671,0.001508169458,
670,0.001557760523,
669,0.00139786338,
668,0.001563346013,
667,0.001656361972,
666,0.001431884593,
665,0.001675435342,
664,0.001896502683,
663,0.002183447359,
662,0.001584831509,
661,0.001468298142,
660,0.001722888323,
659,0.001682659495,
658,0.001969488803,
657,0.001987587661,
656,0.001741990563,
655,0.001456947764,
654,0.001800264115,
653,0.001814378775,
652,0.00180904998,
651,0.001557812444,
650,0.002029171214,
649,0.001726604765,
648,0.001551213907,
647,0.001786773675,
646,0.001722732442,
645,0.00175342639,
644,0.001685517957,
643,0.001770242699,
642,0.001848068787,
641,0.001966940472,
640,0.001672057086,
639,0.001615671557,
638,0.001842999482,
637,0.001504351036,
636,0.001922580763,
635,0.001661273185,
634,0.001769306953,
633,0.00158246723,
632,0.001711921184,
631,0.001867748448,
630,0.001925830846,
629,0.001864056801,
628,0.001612111926,
627,0.001788879046,
626,0.00174043118,
625,0.001859689248,
624,0.001713688369,
623,0.001657531247,
622,0.001687233103,
621,0.0018651227,
620,0.001924296725,
619,0.001927962876,
618,0.001640797243,
617,0.001747916336,
616,0.001891016844,
615,0.001987431664,
614,0.001871674089,
613,0.001702487585,
612,0.001677877968,
611,0.001533185132,
610,0.001678397763,
609,0.00209164503,
608,0.001915690606,
607,0.00172899582,
606,0.001618451672,
605,0.001770112664,
604,0.00179540331,
603,0.001967434539,
602,0.0019201627,
601,0.001747812377,
600,0.002020354848,
599,0.001948946388,
598,0.002094584284,
597,0.001912648557,
596,0.001962779788,
595,0.00205918448,
594,0.001871310174,
593,0.00210103509,
592,0.002062877873,
591,0.002031537704,
590,0.001825322513,
589,0.001852930174,
588,0.002132457914,
587,0.002071226714,
586,0.001809102017,
585,0.001931525068,
584,0.001863848884,
583,0.001824178733,
582,0.002144450322,
581,0.001796157099,
580,0.001933943247,
579,0.001901962562,
578,0.002032682067,
577,0.001891042921,
576,0.002032916294,
575,0.001729411655,
574,0.001765616122,
573,0.001785006141,
572,0.001932747196,
571,0.002072761301,
570,0.002069562208,
569,0.001752984477,
568,0.001575946226,
567,0.001368337078,
566,0.001607279293,
565,0.001612345804,
564,0.00149061007,
563,0.001681074267,
562,0.001444922527,
561,0.001568853739,
560,0.00150349387,
559,0.001690507401,
558,0.002211571904,
557,0.001866474631,
556,0.001498584403,
555,0.001649216167,
554,0.001770112664,
553,0.001931135077,
552,0.00164370751,
551,0.001517858589,
550,0.001689597848,
549,0.001638095011,
548,0.001677098451,
547,0.001694587409,
546,0.001747344621,
545,0.001484220265,
544,0.001654491061,
543,0.001551083988,
542,0.001828545937,
541,0.001547784661,
540,0.001335021923,
539,0.001194077195,
538,0.001806684537,
537,0.002067429479,
536,0.001724213827,
535,0.001862367033,
534,0.001409497811,
533,0.00171982171,
532,0.001838866156,
531,0.001659246278,
530,0.0016587266,
529,0.001489233342,
528,0.001737962128,
527,0.001637419453,
526,0.001724525704,
525,0.001733829849,
524,0.001628974802,
523,0.001686427509,
522,0.001678163884,
521,0.001728398027,
520,0.001828311943,
519,0.001909918501,
518,0.001406900818,
517,0.001479908475,
516,0.001780743478,
515,0.001828234061,
514,0.001648098812,
513,0.001589923748,
512,0.001701733912,
511,0.001718938118,
510,0.001860937104,
509,0.001616477035,
508,0.001589014428,
507,0.001728294068,
506,0.001689363969,
505,0.001779287821,
504,0.001650697319,
503,0.001756363316,
502,0.001498220721,
501,0.001819941681,
500,0.001833459013,
499,0.001766941743,
498,0.001526794629,
497,0.001400226611,
496,0.001197217964,
495,0.001701006317,
494,0.001683854847,
493,0.001896320726,
492,0.001949622412,
491,0.001705814037,
490,0.001735753031,
489,0.001851552282,
488,0.001980514498,
487,0.001593535068,
486,0.001698303618,
485,0.001862158999,
484,0.001516300021,
483,0.001819967641,
482,0.001820149599,
481,0.001504428918,
480,0.001318066614,
479,0.00144590938,
478,0.001554902876,
477,0.001936023356,
476,0.001633028151,
475,0.001661506947,
474,0.001592833549,
473,0.001689156168,
472,0.001846379018,
471,0.001921826741,
470,0.001992762554,
469,0.001710257959,
468,0.001755583566,
467,0.002077729208,
466,0.001665560761,
465,0.001490817871,
464,0.001706229872,
463,0.001754309982,
462,0.001889586914,
461,0.001982282614,
460,0.001899050665,
459,0.001913324581,
458,0.001831067493,
457,0.001840945799,
456,0.002106653526,
455,0.001864082878,
454,0.002038195729,
453,0.002104806714,
452,0.001896450645,
451,0.00198259484,
450,0.001920474693,
449,0.001829351764,
448,0.001956513152,
447,0.001779859653,
446,0.002029795432,
445,0.002245370764,
444,0.002014165279,
443,0.001821891288,
442,0.001912908512,
441,0.002014451427,
440,0.002097211313,
439,0.002028780989,
438,0.00230621011,
437,0.00226220605,
436,0.002161437878,
435,0.002092399169,
434,0.002304440597,
433,0.002278469736,
432,0.002044229535,
431,0.001967616379,
430,0.002063111868,
429,0.002527625067,
428,0.002264261944,
427,0.002960863523,
426,0.002951689297,
425,0.002232308965,
424,0.002234962769,
423,0.002360291081,
422,0.002356100595,
421,0.002491200576,
420,0.002763194032,
419,0.002934775082,
418,0.003237454453,
417,0.003244704567,
416,0.00339748268,
415,0.003885129932,
414,0.004540338181,
413,0.005112345796,
412,0.006396075711,
411,0.007675311528,
410,0.008989800699,
409,0.01161673572,
408,0.0147117544,
407,0.0190078076,
406,0.02356590889,
405,0.02988374047,
404,0.0376419574,
403,0.0476317443,
402,0.06016299874,
401,0.07430405915,
400,0.09117890894,
399,0.1091077551,
398,0.1293365508,
397,0.149857074,
396,0.1706867516,
395,0.1903145015,
394,0.2063135654,
393,0.2190788537,
392,0.2272865921,
391,0.2295985669,
390,0.2262611538,
389,0.217703104,
388,0.204565078,
387,0.189696297,
386,0.173873648,
385,0.1607136577,
384,0.1491883397,
383,0.1409645528,
382,0.1361928284,
381,0.1345783174,
380,0.1352191865,
379,0.1381442249,
378,0.1425836831,
377,0.1479341239,
376,0.1531613022,
375,0.1595886052,
374,0.165044263,
373,0.1690608114,
372,0.171152547,
371,0.1709742993,
370,0.1677123159,
369,0.1624505967,
368,0.1510390043,
367,0.1413556188,
366,0.1299535334,
365,0.1186614856,
364,0.1090374067,
363,0.1012765169,
362,0.09531029314,
361,0.09246398509,
360,0.08837330341,
359,0.08530669659,
358,0.08510955423,
357,0.08468616009,
356,0.08468266577,
355,0.08266592026,
354,0.08498975635,
353,0.07815356553,
352,0.07788447291,
351,0.0750022456,
350,0.07178151608,
349,0.06889951229,
348,0.05626446009,
347,0.05432051793,
346,0.04963313416,
345,0.04738457501,
344,0.04409237579,
343,0.04378361627,
342,0.04341462255,
341,0.04272878543,
340,0.04442845285,
339,0.04328602552,
338,0.04321281612,
337,0.0430582054,
336,0.04468863457,
335,0.04598978907,
334,0.04874753579,
333,0.05102530494,
332,0.05551688746,
331,0.06146236509,
330,0.06805077195,
329,0.07567130029,
328,0.07980019599,
327,0.08240396529,
326,0.08413223177,
325,0.08404570818,
324,0.08677157015,
323,0.08896049857,
322,0.09348931909,
321,0.09856458008,
320,0.1053170115,
319,0.1101653501,
318,0.1180998459,
317,0.1254214495,
316,0.1323787123,
315,0.1361416131,
314,0.1379498541,
313,0.1380382776,
312,0.1378954053,
311,0.1385962218,
310,0.1400906146,
309,0.1428387314,
308,0.1465379149,
307,0.1521545947,
306,0.1623001099,
305,0.1752438992,
304,0.1892318428,
303,0.205331102,
302,0.2226313204,
301,0.241655305,
300,0.2624715269,
299,0.2886001766,
298,0.3207808137,
297,0.3595440686,
296,0.4002338946,
295,0.4362589717,
294,0.455563724,
293,0.4528665543,
292,0.431027472,
291,0.4000526071,
290,0.3695494235,
289,0.3459019661,
288,0.3285196126,
287,0.3180235624,
286,0.313521862,
285,0.3155766129,
284,0.3218254745,
283,0.3274660408,
282,0.3261118233,
281,0.3152809143,
280,0.2954912782,
279,0.2713431716,
278,0.2484698594,
277,0.2274199873,
276,0.2121510506,
275,0.2005150467,
274,0.1941873729,
273,0.190503031,
272,0.1891959906,
271,0.1865684092,
270,0.1841685027,
269,0.1799282581,
268,0.1754047126,
267,0.171669811,
266,0.1697834581,
265,0.1709123403,
264,0.1750562936,
263,0.1828871816,
262,0.1933995485,
261,0.2072908133,
260,0.2235624343,
259,0.244533211,
258,0.2683741748,
257,0.2973434329,
256,0.3306934536,
255,0.3698506653,
254,0.4126726985,
253,0.4579389989,
252,0.498038739,
251,0.529858768,
250,0.5514422655,
249,0.5623710155,
248,0.5647177696,
247,0.5628564954,
246,0.5573282838,
245,0.5505332351,
244,0.5423329473,
243,0.5334866643,
242,0.5242080092,
241,0.5150513649,
240,0.5026451349,
239,0.4893539846,
238,0.474218905,
237,0.4586116374,
236,0.4426090717,
235,0.4260103106,
234,0.4096793234,
233,0.3935120702,
232,0.3785218894,
231,0.3649065495,
230,0.3517881036,
229,0.3407428861,
228,0.3306054473,
227,0.3208715916,
226,0.3131530881,
225,0.3063954115,
224,0.2993890941,
223,0.2921814919,
222,0.2848029137,
221,0.2761315405,
220,0.267057538,
219,0.2588521242,
218,0.2509146631,
217,0.2434653789,
216,0.2352397293,
215,0.2270798683,
214,0.2190549374,
213,0.2091968954,
212,0.1994239092,
211,0.1866648048,
210,0.1727864295,
209,0.1564456224,
208,0.136356622,
207,0.1085543409,
206,0.07902301848,
205,0.04084724188,
204,-0.007866972126,
203,-0.06193499267,
202,-0.1213046908,
201,-0.1672241837,
200,-0.2015121877,

