PAO in Ethanol D2,,
Wavelength (nm),Abs,
800,0.0008949710755,
799,0.0004398958699,
798,0.001103988965,
797,-0.0002357054327,
796,0.001569451182,
795,0.0002869630989,
794,0.0009995971341,
793,0.000562374189,
792,4.61571326E-5,
791,0.001267101034,
790,0.001933215186,
789,0.001790620619,
788,0.0006911614328,
787,0.0008348996635,
786,0.001101679169,
785,7.536059275E-5,
784,0.0008923771675,
783,0.0011786588,
782,0.0004634507059,
781,0.0005464081187,
780,0.001179281739,
779,0.0006696683122,
778,0.001126204268,
777,0.00118818495,
776,0.0008372857701,
775,0.0003661560186,
774,0.0002569424687,
773,0.001785474014,
772,0.0005062880227,
771,0.001492973766,
770,0.000333927921,
769,0.001372388098,
768,0.0007875435404,
767,0.0009505886701,
766,0.0008294272702,
765,0.001030603307,
764,0.0007200452965,
763,0.000884854875,
762,0.0008720412734,
761,0.001054034452,
760,0.001043188036,
759,0.0008464152925,
758,0.001317131915,
757,0.00102281908,
756,0.0009666474652,
755,0.001084343879,
754,0.0009909054497,
753,0.0009575413424,
752,0.00120861351,
751,0.0009031939553,
750,0.0009903346654,
749,0.0004078695783,
748,0.0009529494564,
747,0.0009097308503,
746,0.0007880103076,
745,0.001195738441,
744,0.001451986958,
743,0.000473531225,
742,0.001128929434,
741,0.00100678415,
740,0.0007740585716,
739,0.0007529762806,
738,0.0008446256979,
737,0.0009793860372,
736,0.001118210726,
735,0.0009855348617,
734,0.0007112295716,
733,0.00146437611,
732,0.001032030443,
731,0.0007375995046,
730,0.001150159747,
729,0.001114862855,
728,0.0008723007049,
727,0.0004569205339,
726,0.0007941045915,
725,0.0008777477196,
724,0.0007844056236,
723,0.001202669111,
722,0.001159166102,
721,0.0009086154168,
720,0.001077518798,
719,0.0009718362708,
718,0.001359897666,
717,0.001163500594,
716,0.001125789015,
715,0.001097293454,
714,0.0009086413775,
713,0.00137449149,
712,0.001161761582,
711,0.001175544108,
710,0.001216193312,
709,0.001127320225,
708,0.001118729822,
707,0.001492064679,
706,0.001310173422,
705,0.001389423385,
704,0.001043603173,
703,0.001015683752,
702,0.001268243301,
701,0.0009586050292,
700,0.001281068544,
699,0.0007325172774,
698,0.001342681819,
697,0.001328712213,
696,0.001335203648,
695,0.001004941994,
694,0.001012206892,
693,0.001009041443,
692,0.001241010381,
691,0.001263077022,
690,0.001104559866,
689,0.001377607696,
688,0.0009918913711,
687,0.001157504972,
686,0.00109428307,
685,0.001159581356,
684,0.001003904152,
683,0.001138791791,
682,0.0008538332186,
681,0.001059665461,
680,0.001095295185,
679,0.001168821473,
678,0.001087276265,
677,0.0009504848858,
676,0.001179982559,
675,0.0009761429392,
674,0.001487493049,
673,0.001141101704,
672,0.0008457928197,
671,0.0008602396701,
670,0.001227355562,
669,0.0009933443507,
668,0.001105857431,
667,0.001001076074,
666,0.0007791154203,
665,0.00125092722,
664,0.001483726781,
663,0.001473674667,
662,0.0009577489109,
661,0.0007681461284,
660,0.001221099519,
659,0.001123063965,
658,0.001331828069,
657,0.001271358691,
656,0.001318274299,
655,0.001048066304,
654,0.001005901955,
653,0.001225252869,
652,0.001120935776,
651,0.001207159832,
650,0.001247188891,
649,0.001373582636,
648,0.001121662557,
647,0.001320014009,
646,0.001130486606,
645,0.001009586384,
644,0.001268502907,
643,0.001397759421,
642,0.001471337047,
641,0.001420639106,
640,0.001127709518,
639,0.001150185708,
638,0.001391682657,
637,0.001160775311,
636,0.001268606749,
635,0.001243606443,
634,0.001263258746,
633,0.001285508159,
632,0.001258767443,
631,0.001654101303,
630,0.001228809357,
629,0.001484376146,
628,0.00121985341,
627,0.001307395287,
626,0.001372258295,
625,0.001505545923,
624,0.001385320327,
623,0.001222137827,
622,0.001314717229,
621,0.001342058647,
620,0.001664937008,
619,0.001447026269,
618,0.00130965421,
617,0.001480142237,
616,0.001580388867,
615,0.001612943364,
614,0.001401732792,
613,0.001273954986,
612,0.001317287679,
611,0.00133873499,
610,0.00133930624,
609,0.001691806829,
608,0.001499311766,
607,0.001363481162,
606,0.001352419262,
605,0.001741262851,
604,0.001415522886,
603,0.001566203777,
602,0.001532405731,
601,0.00153263961,
600,0.001735129277,
599,0.00172294036,
598,0.001746954746,
597,0.001660103793,
596,0.001749865594,
595,0.001756233396,
594,0.001558306045,
593,0.001838138327,
592,0.001704670605,
591,0.00160333002,
590,0.001545654493,
589,0.001660051872,
588,0.001703553135,
587,0.001700876397,
586,0.001727332477,
585,0.001539731515,
584,0.001746200956,
583,0.001723512076,
582,0.001759170322,
581,0.001616762835,
580,0.001544667291,
579,0.001660051872,
578,0.001456402359,
577,0.001677254331,
576,0.00160093978,
575,0.00154851214,
574,0.001391630736,
573,0.001763042994,
572,0.001900194562,
571,0.00197658781,
570,0.001807464403,
569,0.001256171265,
568,0.001143956673,
567,0.001205290784,
566,0.001254198258,
565,0.001217101817,
564,0.001286624582,
563,0.001355301589,
562,0.0009598243632,
561,0.001247422537,
560,0.001036908594,
559,0.001339202398,
558,0.001641290961,
557,0.001424768474,
556,0.001245683176,
555,0.001124906586,
554,0.0012665299,
553,0.001413029735,
552,0.00109913596,
551,0.00112480286,
550,0.00140557636,
549,0.001162202796,
548,0.001173908822,
547,0.001298100222,
546,0.001187042799,
545,0.001074690255,
544,0.001190650859,
543,0.001267957734,
542,0.001214428106,
541,0.001145825372,
540,0.0009182393551,
539,0.001052140258,
538,0.001476479927,
537,0.001413341379,
536,0.001206484856,
535,0.001385787735,
534,0.001028293977,
533,0.001239374862,
532,0.001322454656,
531,0.001213675365,
530,0.001232261886,
529,0.0008350812132,
528,0.001277719392,
527,0.00134333095,
526,0.001238881727,
525,0.0013173396,
524,0.001084317919,
523,0.001160126412,
522,0.001246669679,
521,0.001196958474,
520,0.001271670335,
519,0.00120749732,
518,0.0009724848205,
517,0.001059198286,
516,0.001492973766,
515,0.001216997975,
514,0.001183331013,
513,0.001126593561,
512,0.001254224218,
511,0.001384073752,
510,0.001361118164,
509,0.001288338099,
508,0.0009970025858,
507,0.001258793403,
506,0.001156077371,
505,0.001464661793,
504,0.001071342733,
503,0.001378698274,
502,0.00100289227,
501,0.001377296052,
500,0.001315522124,
499,0.001365350792,
498,0.0009275262128,
497,0.0006175603485,
496,0.0006847574841,
495,0.001048403559,
494,0.00112013123,
493,0.00107759668,
492,0.001330270199,
491,0.0009824214503,
490,0.00106231228,
489,0.001330919331,
488,0.001254354022,
487,0.001056421781,
486,0.001060521696,
485,0.001067631878,
484,0.001135391765,
483,0.001356392168,
482,0.001000193879,
481,0.0008824425749,
480,0.0007197341183,
479,0.0008326692041,
478,0.001125711133,
477,0.001079413225,
476,0.001238648081,
475,0.0008225803613,
474,0.0009964058409,
473,0.001206303248,
472,0.001266997191,
471,0.001152781188,
470,0.001220113016,
469,0.001028942643,
468,0.001234312775,
467,0.001221722458,
466,0.001255652052,
465,0.0007861949853,
464,0.00122112548,
463,0.001058134483,
462,0.001182785956,
461,0.001296853996,
460,0.001082164003,
459,0.001065685647,
458,0.00116334483,
457,0.001039451454,
456,0.00151435181,
455,0.001080529066,
454,0.001249084016,
453,0.001083772862,
452,0.001228991081,
451,0.001382593531,
450,0.001012803637,
449,0.001233352232,
448,0.0008746351232,
447,0.001184680732,
446,0.001319312956,
445,0.001224318403,
444,0.001337696332,
443,0.000902701111,
442,0.001314249821,
441,0.001238803845,
440,0.001307758735,
439,0.001111073885,
438,0.001416042331,
437,0.001154675847,
436,0.001429910772,
435,0.001164279296,
434,0.001560124569,
433,0.0013993436,
432,0.001041397569,
431,0.001125244075,
430,0.001254068455,
429,0.001510533271,
428,0.001225408632,
427,0.002107069595,
426,0.001961531583,
425,0.0009246726986,
424,0.001388644334,
423,0.001360624796,
422,0.001179463463,
421,0.001134976512,
420,0.001524716499,
419,0.001556981122,
418,0.001720315428,
417,0.001907370519,
416,0.001826726249,
415,0.002205978148,
414,0.002454128582,
413,0.002661918988,
412,0.003501852276,
411,0.004124781583,
410,0.00444243988,
409,0.006214220077,
408,0.007842676714,
407,0.01002330892,
406,0.01236047316,
405,0.01528150588,
404,0.01981864125,
403,0.0245290529,
402,0.03145659715,
401,0.03882373497,
400,0.04817702994,
399,0.05764775723,
398,0.06865713,
397,0.07972116023,
396,0.09145129472,
395,0.1024756357,
394,0.1113403887,
393,0.1185395792,
392,0.1234516725,
391,0.1248207465,
390,0.1233277246,
389,0.1180576831,
388,0.1105886325,
387,0.1022171527,
386,0.0934316963,
385,0.08600558341,
384,0.07972843945,
383,0.07503879815,
382,0.07284916192,
381,0.07173182815,
380,0.07204502076,
379,0.07385859638,
378,0.0757836625,
377,0.07847278565,
376,0.08155774325,
375,0.08492518961,
374,0.08731884509,
373,0.09016378969,
372,0.09118973464,
371,0.09139448404,
370,0.08936016262,
369,0.08717492223,
368,0.07992302626,
367,0.07495354861,
366,0.06788040698,
365,0.06245780736,
364,0.05699814484,
363,0.0528764762,
362,0.04988794774,
361,0.0495573394,
360,0.04624532536,
359,0.04413099959,
358,0.04451075569,
357,0.04427773878,
356,0.0439552702,
355,0.04309668392,
354,0.04666076973,
353,0.0385347642,
352,0.04136160761,
351,0.03841478378,
350,0.0358122997,
349,0.03598318994,
348,0.0287371818,
347,0.02864426561,
346,0.0252943486,
345,0.02422091365,
344,0.02286984026,
343,0.02244433761,
342,0.0227207765,
341,0.02195411734,
340,0.02278837189,
339,0.02107722126,
338,0.02123961225,
337,0.02141538821,
336,0.02249665,
335,0.02452562936,
334,0.02590734325,
333,0.0258959122,
332,0.02944483235,
331,0.03190550953,
330,0.0353994295,
329,0.03880649805,
328,0.04142165929,
327,0.04291751236,
326,0.04444732144,
325,0.04462471604,
324,0.04633419216,
323,0.04780940339,
322,0.04980737716,
321,0.05251653492,
320,0.0553977713,
319,0.05877316371,
318,0.06304784119,
317,0.06735262275,
316,0.07053739578,
315,0.07315672189,
314,0.07360208035,
313,0.07408992946,
312,0.07381980866,
311,0.07381597161,
310,0.07484088093,
309,0.0771517083,
308,0.07958520204,
307,0.08255986869,
306,0.08915644139,
305,0.09611587226,
304,0.1040042192,
303,0.1132442877,
302,0.1234994829,
301,0.1351112276,
300,0.1477408856,
299,0.1643445045,
298,0.1859320104,
297,0.2121365815,
296,0.2419683486,
295,0.2691135705,
294,0.2839487493,
293,0.2810938358,
292,0.2635937333,
291,0.2388375849,
290,0.2168199718,
289,0.2000781,
288,0.1889187098,
287,0.1826170087,
286,0.1801515669,
285,0.1810496002,
284,0.1852428019,
283,0.1886605918,
282,0.1873486638,
281,0.1805166453,
280,0.1677270085,
279,0.1531131566,
278,0.1390203685,
277,0.1267030835,
276,0.117466636,
275,0.1106548607,
274,0.1068051308,
273,0.1050605923,
272,0.1042769998,
271,0.1026981026,
270,0.101369679,
269,0.09905545413,
268,0.09679156542,
267,0.09451431036,
266,0.09335514903,
265,0.09436103702,
264,0.09652797133,
263,0.1010189801,
262,0.1073233709,
261,0.1161389053,
260,0.1258135289,
259,0.1381890476,
258,0.1534424275,
257,0.171792984,
256,0.1946235746,
255,0.2223840356,
254,0.2559568882,
253,0.2949306071,
252,0.3354004025,
251,0.372946918,
250,0.4020704925,
249,0.4201907814,
248,0.4272545576,
247,0.4251797199,
246,0.4178902507,
245,0.4072339535,
244,0.3957026303,
243,0.3846821487,
242,0.3742410839,
241,0.3622915745,
240,0.3488536477,
239,0.3342887461,
238,0.3188779056,
237,0.3028621376,
236,0.2875241935,
235,0.272816807,
234,0.2592433989,
233,0.2458190322,
232,0.2340817153,
231,0.2241777629,
230,0.2146968842,
229,0.2066653669,
228,0.1989257634,
227,0.1929492056,
226,0.1874688715,
225,0.1833115369,
224,0.1790952832,
223,0.1740189642,
222,0.1685705036,
221,0.1634089202,
220,0.1577218771,
219,0.1512260139,
218,0.1462081224,
217,0.1412454844,
216,0.1355910003,
215,0.1300385147,
214,0.1245563775,
213,0.1175550222,
212,0.1105488017,
211,0.1018844843,
210,0.09309635311,
209,0.08087086678,
208,0.0660103485,
207,0.04481845349,
206,0.02327696793,
205,-0.00631156005,
204,-0.04520244524,
203,-0.08785381913,
202,-0.1390269697,
201,-0.1764032692,
200,-0.2021099329,

