Rhodamine 6G in methanol C 3,,
Wavelength (nm),Abs,
800,0.0001343948534,
799,0.0001770702365,
798,-0.001398590626,
797,-0.0001815779833,
796,-0.0004510099243,
795,-0.00140741514,
794,8.522497228E-5,
793,-0.0003805640445,
792,0.0006394397351,
791,0.0002457791416,
790,0.000120981982,
789,-0.0001060159848,
788,0.0001648731413,
787,-0.0008069438627,
786,-0.0003409913916,
785,-0.000436942355,
784,-0.001183342421,
783,-0.0005205653142,
782,-0.0004314082908,
781,-0.0003438366111,
780,-0.0004381836334,
779,-0.0007540245424,
778,0.0001386155927,
777,-0.0001499574137,
776,-0.0003359216789,
775,-0.0005833366304,
774,-0.0003417673579,
773,-0.000819345878,
772,-0.0004697315162,
771,-0.0001053431115,
770,-0.0004783162731,
769,-0.0005393873435,
768,-0.0007421891787,
767,0.0004145285639,
766,-0.001035394263,
765,-0.0004105127009,
764,-0.0004624394933,
763,-0.000739811745,
762,-0.0006393785006,
761,-0.0001616019144,
760,-0.0007012021961,
759,-0.0004122712708,
758,-0.0004874180304,
757,-0.0004766614002,
756,-6.11901196E-5,
755,-0.0003644250392,
754,-3.639414717E-5,
753,-0.000265508861,
752,-0.0004376664292,
751,-0.0004578366934,
750,-0.0004535441112,
749,-0.0001728321076,
748,-0.000464870187,
747,-5.342535223E-5,
746,-0.0001904272067,
745,2.513600339E-5,
744,-0.0003489062074,
743,4.675257514E-5,
742,-0.001137026935,
741,-0.0002638531732,
740,-0.0002837727952,
739,-0.0006918982253,
738,-0.0003077786241,
737,-0.0001361906034,
736,-0.0001790939714,
735,0.0001685503521,
734,-0.0005528828478,
733,-0.0005732028512,
732,-0.0004922273802,
731,-0.0002355501929,
730,-9.447350749E-5,
729,-7.273347728E-5,
728,-0.0002340496139,
727,-0.0001573064219,
726,0.0001285169565,
725,0.0001643293217,
724,-0.0002826345444,
723,-0.0003070543171,
722,-0.0001486635592,
721,-0.0002823758696,
720,0.0001723052992,
719,-0.000159842326,
718,-0.0001069476493,
717,-3.654944885E-5,
716,-0.0001903754455,
715,-0.0001806982327,
714,-4.141753038E-7,
713,0.000155188216,
712,7.308223576E-5,
711,3.013231253E-5,
710,9.213793237E-5,
709,-2.495335684E-5,
708,1.87677324E-5,
707,-0.000271407218,
706,0.0001497502526,
705,-9.669920837E-5,
704,-0.000118438038,
703,0.0003170635027,
702,-0.000164189536,
701,-0.0003418190754,
700,-2.13295134E-5,
699,-0.0002020706161,
698,0.0001187033849,
697,-9.768265591E-5,
696,-2.624757872E-5,
695,-0.0002118508564,
694,-0.0001005812228,
693,-8.122256986E-5,
692,-0.0003378357796,
691,7.448031829E-5,
690,-0.000138778385,
689,-8.50012002E-5,
688,-0.0003201431828,
687,-0.0004172883637,
686,2.79318574E-5,
685,-0.0004802297335,
684,-0.0001502161758,
683,-0.000244553521,
682,-0.0003093824198,
681,-0.000200000708,
680,-0.0002385513217,
679,-0.0001714865648,
678,-0.0003882194869,
677,-2.298613072E-5,
676,4.167660791E-6,
675,-0.0001966370619,
674,-0.000151613538,
673,-0.0001478872437,
672,-0.0003690288577,
671,-0.0003771500778,
670,-0.0002604382753,
669,3.549111352E-5,
668,-0.0001652763458,
667,-0.0001630509942,
666,-0.0003030707012,
665,-0.0001105707779,
664,-8.634700498E-5,
663,0.0005084649893,
662,-0.0003914782137,
661,6.645436224E-5,
660,-0.0004414419527,
659,-0.0003032258828,
658,-9.654393216E-5,
657,-6.087953079E-5,
656,0.0001066891782,
655,7.903705409E-5,
654,-0.0002870840253,
653,-0.00012257864,
652,1.555774543E-5,
651,-0.0001537871867,
650,-7.946265396E-5,
649,-5.145825708E-5,
648,3.875302355E-5,
647,8.639007137E-5,
646,-7.62533673E-5,
645,-0.0003149180266,
644,-0.0002559367858,
643,-0.0002248908277,
642,-0.00021469692,
641,8.209216321E-5,
640,-0.0002721833007,
639,4.607946903E-5,
638,-0.0002753394074,
637,-0.0002037782979,
636,-6.900650624E-5,
635,-0.0001991209865,
634,-0.0002867218573,
633,5.237047299E-5,
632,-7.221584383E-5,
631,-0.0001721593289,
630,-0.0001194731958,
629,-0.0001949293655,
628,-0.0003442504385,
627,-5.192414756E-5,
626,-0.0001056536712,
625,-0.00035713127,
624,-0.0003050366358,
623,-0.0003006391053,
622,-0.0004925893736,
621,-0.0001632579952,
620,-0.0002872909827,
619,-1.967289063E-5,
618,-0.0004907794064,
617,-0.0003888919309,
616,-0.0002871874894,
615,-0.00065876398,
614,-0.0002271158592,
613,-0.0002712520072,
612,-0.0002710967674,
611,-5.166531992E-5,
610,-0.0001942566305,
609,-0.00021469692,
608,-0.0004908310948,
607,-0.000146696897,
606,-0.000121698773,
605,-0.000318332488,
604,-0.0004665768356,
603,-0.0001021857825,
602,-0.0004092713352,
601,-0.0003777707752,
600,-0.0002583168971,
599,1.778402475E-5,
598,-8.375891775E-5,
597,-0.0001007882674,
596,-6.641831715E-5,
595,-0.0001269779896,
594,0.0001277919364,
593,0.0001953017636,
592,-0.0003335937508,
591,-0.0001584449928,
590,-4.545338015E-5,
589,-0.0001846829982,
588,-0.000338611746,
587,-0.0002585238544,
586,0.0001313393732,
585,-0.0001256840769,
584,-0.0002502452116,
583,-8.681286272E-5,
582,1.832765156E-5,
581,3.039118928E-5,
580,-0.0003135211882,
579,-0.0001859249896,
578,-0.0002250978141,
577,-0.0001073099629,
576,9.410569328E-5,
575,-0.0001612914057,
574,0.0002400810481,
573,-0.0002977935947,
572,0.0002428523876,
571,0.0001279473072,
570,9.063623293E-5,
569,0.0003203534288,
568,0.0006098872982,
567,0.0005992592196,
566,0.001090338454,
565,0.001043188036,
564,0.001158413361,
563,0.001445415895,
562,0.001405991847,
561,0.002134877257,
560,0.002728912048,
559,0.00284896302,
558,0.00366383139,
557,0.004481094424,
556,0.005097442772,
555,0.006306005176,
554,0.007319186348,
553,0.00839297846,
552,0.009975920431,
551,0.01165481098,
550,0.01336015761,
549,0.01562557369,
548,0.01814395934,
547,0.02066731639,
546,0.02324299514,
545,0.02640092,
544,0.02972360142,
543,0.03342415392,
542,0.03722094744,
541,0.04094699025,
540,0.04512013867,
539,0.0491307117,
538,0.05345392227,
537,0.05737198517,
536,0.06093565375,
535,0.06448547542,
534,0.06742122024,
533,0.07034403831,
532,0.07266653329,
531,0.07451411337,
530,0.07632194459,
529,0.07674591243,
528,0.0772485882,
527,0.07730259001,
526,0.07680914551,
525,0.07540866733,
524,0.07419893146,
523,0.07197529078,
522,0.06983609498,
521,0.0673789233,
520,0.06488273293,
519,0.06195180118,
518,0.05922622606,
517,0.05640291423,
516,0.05357098579,
515,0.0506330654,
514,0.04783917218,
513,0.04572186619,
512,0.04268508777,
511,0.04063798487,
510,0.0382488966,
509,0.03637716174,
508,0.03462115303,
507,0.0327180624,
506,0.031657774,
505,0.03036062419,
504,0.02924307063,
503,0.02836546861,
502,0.02743302286,
501,0.0269891452,
500,0.02626048587,
499,0.02587351948,
498,0.0256750863,
497,0.02504782937,
496,0.02467334084,
495,0.02434566058,
494,0.02366102487,
493,0.02347851731,
492,0.02291551791,
491,0.02184932865,
490,0.02101589553,
489,0.0206638407,
488,0.01995316148,
487,0.01907569356,
486,0.01808283105,
485,0.01715726219,
484,0.01637478918,
483,0.01536930073,
482,0.01453939267,
481,0.01356973499,
480,0.01274952013,
479,0.01162941847,
478,0.01080091391,
477,0.01029113028,
476,0.009536716156,
475,0.00899064634,
474,0.00876023341,
473,0.008116750978,
472,0.007430638187,
471,0.007211895194,
470,0.006481776945,
469,0.00617588358,
468,0.00605871575,
467,0.005617709365,
466,0.005094220862,
465,0.005195593461,
464,0.0046709124,
463,0.004261060618,
462,0.004132987466,
461,0.004153476562,
460,0.003637831192,
459,0.00346526783,
458,0.003310770495,
457,0.003319587093,
456,0.002761083888,
455,0.002711068839,
454,0.002412139904,
453,0.002347667934,
452,0.002125356346,
451,0.002108084271,
450,0.001931265113,
449,0.001391111291,
448,0.001565840095,
447,0.001258845325,
446,0.001488168375,
445,0.001027930761,
444,0.001043836703,
443,0.0007675496745,
442,0.0006545018987,
441,0.0005807515117,
440,0.0004822903138,
439,0.0007437709137,
438,0.000198823851,
437,0.0004186224833,
436,0.0003197835176,
435,0.0006844463642,
434,0.0001832077542,
433,0.0002046509035,
432,-9.333476919E-5,
431,7.636427654E-6,
430,3.74586125E-5,
429,-9.514639532E-5,
428,-7.009354886E-5,
427,7.739973626E-6,
426,1.509178219E-5,
425,-1.019895171E-5,
424,-5.549596972E-5,
423,6.037027561E-5,
422,-8.189547952E-5,
421,-0.0001056536712,
420,1.667088327E-5,
419,0.0002073184296,
418,0.0002591181837,
417,0.0001176935548,
416,0.0002450021275,
415,0.0002752550645,
414,0.0003150429402,
413,0.0003312596236,
412,0.0001591502078,
411,0.0002323628287,
410,0.0004119116056,
409,0.0005586936604,
408,7.893348811E-5,
407,0.0004199439427,
406,1.563540718E-5,
405,0.0002645834174,
404,0.0002505448938,
403,0.0002243598574,
402,0.0004220686387,
401,0.0003252495371,
400,0.0003214414464,
399,0.0003176075115,
398,-4.2970496E-6,
397,0.0004383152409,
396,0.0003356117813,
395,0.0002160980512,
394,0.000716622686,
393,0.0006888280041,
392,0.0004774442932,
391,0.0004369678209,
390,0.0005029707681,
389,0.0007352658431,
388,0.0003086703946,
387,0.0002736491151,
386,0.0005506069283,
385,0.000667127606,
384,0.0002799174981,
383,0.0009985852521,
382,0.00121808832,
381,0.0001160622996,
380,0.000167436825,
379,0.0001440534106,
378,-2.231313192E-5,
377,0.0004865921801,
376,0.0008995623793,
375,0.0001445713133,
374,0.0004115747579,
373,-0.0002066761517,
372,-4.736873962E-5,
371,0.0004993166076,
370,0.000430774875,
369,0.0006368214381,
368,0.0004571537429,
367,0.001012051245,
366,0.001145098591,
365,0.0009352049092,
364,0.0007762109744,
363,0.0009510815726,
362,0.001247656182,
361,0.002939231694,
360,0.00168614171,
359,0.002433797577,
358,0.003148088697,
357,0.003661064198,
356,0.002910590731,
355,0.004456431605,
354,0.006663639098,
353,0.002090786584,
352,0.005199261475,
351,0.006374219432,
350,0.005004734267,
349,0.01043619867,
348,0.006243893877,
347,0.0059470376,
346,0.005563037936,
345,0.006025458686,
344,0.004580414388,
343,0.004908432718,
342,0.005086468533,
341,0.004421754275,
340,0.003131010337,
339,0.003673620988,
338,0.003889648477,
337,0.003290894907,
336,0.003408753313,
335,0.002710547764,
334,0.001751269097,
333,0.002225127537,
332,0.002941368613,
331,0.002838749206,
330,0.002415029332,
329,0.0024866967,
328,0.001382593531,
327,0.001451701275,
326,0.002810010687,
325,0.001375374384,
324,0.0004537850327,
323,0.001024349942,
322,0.001797196921,
321,0.0006673090393,
320,0.0007406074437,
319,0.0007914335001,
318,0.00149637647,
317,0.001004656544,
316,0.0005640590098,
315,0.001172403456,
314,0.001854671864,
313,0.001296724193,
312,0.001713610487,
311,0.001234831987,
310,0.002236081753,
309,0.002253853483,
308,0.002532650251,
307,0.003082412528,
306,0.003637413494,
305,0.003744269023,
304,0.004289163277,
303,0.004999863915,
302,0.005292482674,
301,0.005472825374,
300,0.006009710487,
299,0.006934787612,
298,0.006963116117,
297,0.007133812178,
296,0.007791519631,
295,0.007869746536,
294,0.008322968148,
293,0.007962488569,
292,0.007133575622,
291,0.007605180144,
290,0.007584105711,
289,0.008087845519,
288,0.007959667593,
287,0.008374953642,
286,0.008281094022,
285,0.008639963344,
284,0.008818928152,
283,0.009201350622,
282,0.00861435011,
281,0.008871606551,
280,0.008847512305,
279,0.009341982193,
278,0.009289590642,
277,0.009065838531,
276,0.009910210036,
275,0.008825717494,
274,0.008993288502,
273,0.009200213477,
272,0.009186755866,
271,0.009084394202,
270,0.008798191324,
269,0.008261781186,
268,0.007993073203,
267,0.007882874459,
266,0.007321713492,
265,0.006833087187,
264,0.006458838936,
263,0.006991867907,
262,0.006898254622,
261,0.006907170638,
260,0.007330322172,
259,0.008219412528,
258,0.008633362129,
257,0.009882641956,
256,0.0113995159,
255,0.01343517657,
254,0.01577495784,
253,0.01770798676,
252,0.0201335419,
251,0.02246947028,
250,0.02453373559,
249,0.02559979074,
248,0.0265057683,
247,0.0266001001,
246,0.0257844273,
245,0.02521950193,
244,0.02429301478,
243,0.02318488434,
242,0.02205944806,
241,0.02087192051,
240,0.01975979656,
239,0.01821497642,
238,0.01743423566,
237,0.01603219472,
236,0.01431045961,
235,0.01333084796,
234,0.01287821308,
233,0.01232577115,
232,0.01142492145,
231,0.01102497801,
230,0.01071897335,
229,0.009714382701,
228,0.009170152247,
227,0.008643184789,
226,0.008294075727,
225,0.008084654808,
224,0.006707881112,
223,0.006012020167,
222,0.00508285407,
221,0.003855120623,
220,0.00259157666,
219,0.001927572885,
218,0.0008497870876,
217,0.0003540831385,
216,-0.0001804912317,
215,-0.0009474793915,
214,-0.002722573234,
213,-0.00371901365,
212,-0.005864963867,
211,-0.008555190638,
210,-0.01394076366,
209,-0.01829135045,
208,-0.02393754385,
207,-0.03299701959,
206,-0.04337596521,
205,-0.0608830899,
204,-0.08186616749,
203,-0.1078948751,
202,-0.1330658495,
201,-0.1585830599,
200,-0.1767973751,

