Rhodamine 6G in methanol D 3,,
Wavelength (nm),Abs,
800,0.001532847411,
799,0.0006809203187,
798,2.221072828E-5,
797,0.0008759060875,
796,0.000547652191,
795,7.077800547E-5,
794,0.001093789935,
793,0.0004401809128,
792,0.0007288352936,
791,0.0004466071841,
790,0.001024116413,
789,0.0002473331988,
788,0.0007088960265,
787,0.0004013920552,
786,0.0001533755567,
785,0.0002907190355,
784,7.253853983E-5,
783,-0.0002813928295,
782,1.278785658E-5,
781,0.001214687712,
780,-0.0001677086839,
779,0.0006071913522,
778,0.0004044235393,
777,0.0006514427951,
776,0.0005164213362,
775,0.0001799706515,
774,0.0003664669057,
773,0.0004033093865,
772,-3.779186954E-5,
771,0.001078297384,
770,0.0007425781223,
769,0.0007244791486,
768,0.0001426292147,
767,0.0006398027181,
766,0.000111971247,
765,0.0003663114621,
764,0.0002909780887,
763,1.012153189E-5,
762,0.0003934896085,
761,0.0003473214456,
760,0.0005324900267,
759,0.0006368992035,
758,0.0001616879599,
757,-9.887314081E-5,
756,0.0005548057961,
755,0.0001518995414,
754,0.0003568811226,
753,0.0003884373,
752,0.0006622794899,
751,0.0004597709922,
750,-3.991432823E-5,
749,0.0006541130715,
748,0.0005829806905,
747,0.0002572791709,
746,0.0007807491347,
745,0.0009258919163,
744,0.0007542209351,
743,0.001081359456,
742,-0.0001046184843,
741,0.0005146849435,
740,0.0005088018952,
739,-0.0001219058031,
738,0.0007391812396,
737,0.0006150199333,
736,-1.708470563E-6,
735,0.0007423447096,
734,0.0007420854527,
733,0.0006696942728,
732,0.0004800616589,
731,0.0003174261656,
730,0.0003682027454,
729,0.0003969096579,
728,0.0005111861974,
727,0.0004198144015,
726,0.0006552278064,
725,0.0009036089759,
724,0.0007411001134,
723,0.0005897461087,
722,0.0005664954078,
721,0.000754869252,
720,0.001041579177,
719,0.0006218117196,
718,0.001019290299,
717,0.001062909141,
716,0.0008183788741,
715,0.0009567111847,
714,0.001203084365,
713,0.001281042583,
712,0.00119319465,
711,0.001009482541,
710,0.0008669834351,
709,0.001060781186,
708,0.001027800958,
707,0.0008812234737,
706,0.001075520646,
705,0.001363844727,
704,0.0007782077882,
703,0.00138960511,
702,0.001078790403,
701,0.0008480752585,
700,0.0009242057567,
699,0.000710477645,
698,0.0008272746345,
697,0.001032419619,
696,0.000854196318,
695,0.000845559407,
694,0.0006365362788,
693,0.0009698904469,
692,0.001038543298,
691,0.001013374538,
690,0.0008132957155,
689,0.0006223820383,
688,0.0007417483139,
687,0.0009993636049,
686,0.001120209112,
685,0.0006799610564,
684,0.0007384293131,
683,0.0008883047267,
682,0.0006431728252,
681,0.0008895497886,
680,0.0008866706048,
679,0.0008145665051,
678,0.0005164991016,
677,0.0005301315687,
676,0.00110583147,
675,0.0009545319481,
674,0.0009780888213,
673,0.0006364844157,
672,0.0006473726244,
671,0.0005880093668,
670,0.0008021180984,
669,0.0008149036439,
668,0.0008518620161,
667,0.0006003220333,
666,0.0008550003404,
665,0.0008656865102,
664,0.001238725963,
663,0.0009712135652,
662,0.0007127334247,
661,0.001129526296,
660,0.0007817345904,
659,0.0008215170237,
658,0.000902934582,
657,0.0007546617999,
656,0.0008783183293,
655,0.001209132606,
654,0.0007975797052,
653,0.0009380066185,
652,0.0008070974145,
651,0.0005908866297,
650,0.0007483087247,
649,0.0008495277143,
648,0.0008844398544,
647,0.0009447775083,
646,0.0009204443195,
645,0.0008696290897,
644,0.0008975650417,
643,0.0006760461256,
642,0.0009178761393,
641,0.001011584187,
640,0.0006363029242,
639,0.000839438464,
638,0.0007671347703,
637,0.001007692306,
636,0.0009334668284,
635,0.0007953234599,
634,0.0007673681248,
633,0.001015242655,
632,0.0009726664284,
631,0.0007629079046,
630,0.0006598684122,
629,0.0005966670578,
628,0.0008380638319,
627,0.001091350568,
626,0.0007679127157,
625,0.0006673349999,
624,0.0005655882414,
623,0.0008449369343,
622,0.0008225284982,
621,0.0006494206609,
620,0.0007329840446,
619,0.0008604730829,
618,0.0006190379499,
617,0.0008775661117,
616,0.0006378584076,
615,0.000842913927,
614,0.0008196756244,
613,0.0006043917965,
612,0.0007901368081,
611,0.0008719115867,
610,0.0006502502365,
609,0.0008100798586,
608,0.000630029419,
607,0.0005903941346,
606,0.000873467885,
605,0.0008039593813,
604,0.0008782924269,
603,0.0008256666479,
602,0.000623548578,
601,0.0006542167393,
600,0.0009606804815,
599,0.0009097827133,
598,0.000801054819,
597,0.000949369336,
596,0.0009609658737,
595,0.001236882759,
594,0.001282107085,
593,0.001202305662,
592,0.0006361992564,
591,0.001010650187,
590,0.001066308469,
589,0.001246124506,
588,0.0007174783386,
587,0.000987817999,
586,0.0009768953314,
585,0.0008857108187,
584,0.0009660507785,
583,0.0009197179461,
582,0.0007768851938,
581,0.001108115306,
580,0.0006712238537,
579,0.001083798823,
578,0.001111774589,
577,0.001044978388,
576,0.001061455929,
575,0.0005237558507,
574,0.0009345563594,
573,0.0008520695264,
572,0.001339410082,
571,0.001086964854,
570,0.000975753821,
569,0.001028838917,
568,0.001296023256,
567,0.001044329721,
566,0.001218425692,
565,0.001304695033,
564,0.001374387648,
563,0.001277200179,
562,0.001350419829,
561,0.001666366239,
560,0.002112896414,
559,0.001907838508,
558,0.002092399169,
557,0.002396964701,
556,0.003118729917,
555,0.003485255875,
554,0.003692704719,
553,0.004386164248,
552,0.004712439608,
551,0.005587108433,
550,0.006256394088,
549,0.007294519804,
548,0.008068831638,
547,0.009065653197,
546,0.01039825659,
545,0.01153939962,
544,0.01308913156,
543,0.01463598013,
542,0.01590068452,
541,0.01745972596,
540,0.01924483292,
539,0.02116665803,
538,0.02277102135,
537,0.02475625835,
536,0.02596985735,
535,0.02729826234,
534,0.02842411026,
533,0.02997315116,
532,0.03084961884,
531,0.03152233735,
530,0.03241441026,
529,0.03238777071,
528,0.03275432065,
527,0.0328466706,
526,0.03258525208,
525,0.03188863024,
524,0.03151242808,
523,0.03065401129,
522,0.0298593659,
521,0.0286121089,
520,0.02751600184,
519,0.02631125227,
518,0.02540052123,
517,0.02408676408,
516,0.02285393141,
515,0.02157542855,
514,0.02037606575,
513,0.019708056,
512,0.01852917485,
511,0.01769450679,
510,0.0163671542,
509,0.01596126519,
508,0.01478831936,
507,0.01416973397,
506,0.0137415519,
505,0.01340938546,
504,0.01284072362,
503,0.01245039608,
502,0.01198265702,
501,0.01190490928,
500,0.01136837155,
499,0.01106098294,
498,0.01112707984,
497,0.01095300261,
496,0.01108705997,
495,0.01096986048,
494,0.01035003178,
493,0.01035453845,
492,0.009967100807,
491,0.009551375173,
490,0.009515997954,
489,0.009381446056,
488,0.008945034817,
487,0.00812854059,
486,0.008093779907,
485,0.007845048793,
484,0.007402041927,
483,0.006977952085,
482,0.006545892917,
481,0.006264955271,
480,0.0059654871,
479,0.005429731682,
478,0.00532133365,
477,0.005110774189,
476,0.004644328728,
475,0.004374868236,
474,0.004344197456,
473,0.004123762716,
472,0.003941314761,
471,0.003649786813,
470,0.003442175919,
469,0.003415093292,
468,0.003433800302,
467,0.003018049523,
466,0.002787109697,
465,0.002767883474,
464,0.002594779711,
463,0.002680150792,
462,0.002251667669,
461,0.002337752143,
460,0.002185580553,
459,0.0019219307,
458,0.002059730701,
457,0.0018701402,
456,0.001875651767,
455,0.001494272496,
454,0.00161884143,
453,0.001954276813,
452,0.001750333467,
451,0.001539263874,
450,0.001375348424,
449,0.001167861163,
448,0.001283249469,
447,0.001301137963,
446,0.001461233362,
445,0.0008320985944,
444,0.001100407564,
443,0.0008665684145,
442,0.00101264799,
441,0.0008515507798,
440,0.001072302926,
439,0.0009263328975,
438,0.0006630053977,
437,0.0008903539274,
436,0.0009356459486,
435,0.001095995889,
434,0.0005424166447,
433,0.000798617024,
432,0.0007490348071,
431,0.0009157230961,
430,0.0008062156267,
429,0.0004567909637,
428,0.0006158235483,
427,0.0005634628469,
426,0.0007065365207,
425,0.0008851661114,
424,0.0007844056236,
423,0.0006306775031,
422,0.0005071950727,
421,0.0007581884274,
420,0.0009963021148,
419,0.0008813531604,
418,0.000684187049,
417,0.0009711357416,
416,0.0008621849702,
415,0.0007143928087,
414,0.001129318727,
413,0.001038854709,
412,0.0006612424622,
411,0.00059884449,
410,0.00104868901,
409,0.001494818018,
408,0.0005088277976,
407,0.0007504610112,
406,0.0004924489767,
405,0.0007315838011,
404,0.0007055512397,
403,0.000685742707,
402,0.0006874797982,
401,0.000656472228,
400,0.0009122730116,
399,0.0008758282638,
398,0.0007281870348,
397,0.001178580918,
396,0.0008289863472,
395,0.0005441791145,
394,0.001212948468,
393,0.001097449102,
392,0.0006642239168,
391,0.0007413075073,
390,0.0006263223477,
389,0.001017655712,
388,0.0004869808909,
387,0.0009644682286,
386,0.0008861517999,
385,0.0009803718422,
384,0.0009665696416,
383,0.0006743609556,
382,0.001842557569,
381,0.0007373921108,
380,0.0006667905254,
379,0.00057626731,
378,5.099835107E-5,
377,0.0008580349968,
376,0.001203499734,
375,0.0007805935456,
374,0.0003382801078,
373,0.0003981015179,
372,0.0002940864943,
371,0.0007782077882,
370,0.0006597128813,
369,0.0009198476328,
368,0.0008969684131,
367,0.001345122699,
366,0.001599484822,
365,0.0005823845277,
364,0.0003201462096,
363,0.001257339609,
362,0.00190466654,
361,0.001711167512,
360,0.0008326173411,
359,0.001092570252,
358,0.0007711541839,
357,0.002202465665,
356,0.002331063617,
355,0.002178139985,
354,0.004178253002,
353,0.001212039962,
352,0.003214687575,
351,0.003123084083,
350,0.001958515262,
349,0.006977399811,
348,0.003931336105,
347,0.002676400123,
346,0.0023176088,
345,0.002596159931,
344,0.001658518682,
343,0.002676660661,
342,0.001128150732,
341,0.002132874215,
340,0.00131692423,
339,0.002153217094,
338,0.002049483359,
337,0.001982100774,
336,0.00154474529,
335,0.002030367497,
334,0.001657141489,
333,0.001241244026,
332,0.001325284829,
331,0.001392461709,
330,0.001534406096,
329,0.002241363749,
328,0.001313003595,
327,0.001690533478,
326,0.001388644334,
325,0.001539393794,
324,0.0004525671247,
323,0.0009853532538,
322,0.001233222429,
321,0.0003025570186,
320,0.0002207857615,
319,0.001382463728,
318,0.0007269683992,
317,0.001130149234,
316,0.0008756985771,
315,0.0007277203258,
314,0.001185148023,
313,-0.0006209744024,
312,0.001379581285,
311,0.0004191666085,
310,0.001004500897,
309,0.0008782146033,
308,0.00104064506,
307,0.001332165673,
306,0.001353977248,
305,0.0018213453,
304,0.001967746532,
303,0.001949440455,
302,0.002796306508,
301,0.002484431723,
300,0.002500130795,
299,0.002353211632,
298,0.002581264591,
297,0.00243059569,
296,0.003120737616,
295,0.003233803203,
294,0.00303199538,
293,0.003037521616,
292,0.002397615463,
291,0.002700910205,
290,0.002898525214,
289,0.002918252489,
288,0.003552871989,
287,0.00296412129,
286,0.002681348938,
285,0.003618880408,
284,0.00349525013,
283,0.00331317028,
282,0.002729016356,
281,0.003027746454,
280,0.003120033536,
279,0.003690799,
278,0.003490004921,
277,0.003101105336,
276,0.003500625724,
275,0.003172677476,
274,0.003600661177,
273,0.003276027972,
272,0.002989168745,
271,0.003560832236,
270,0.003479645588,
269,0.003184750676,
268,0.003177397186,
267,0.002948692068,
266,0.002740868833,
265,0.002274982631,
264,0.002608920215,
263,0.002870824886,
262,0.002441919409,
261,0.00239022309,
260,0.002770175925,
259,0.002894720528,
258,0.003381229239,
257,0.003955943044,
256,0.004096689634,
255,0.0049179364,
254,0.005687284749,
253,0.006609335542,
252,0.00806880556,
251,0.008589134552,
250,0.009459431283,
249,0.009860794991,
248,0.01006217208,
247,0.01025842223,
246,0.009616211057,
245,0.009282211773,
244,0.008521283977,
243,0.008393532597,
242,0.00741786696,
241,0.006994498428,
240,0.006123373285,
239,0.005175238475,
238,0.0045261872,
237,0.003756097285,
236,0.002445902443,
235,0.001556929201,
234,0.0007978908834,
233,0.000141256809,
232,-0.0007702524308,
231,-0.001634002663,
230,-0.002096509794,
229,-0.003048376646,
228,-0.003683594288,
227,-0.004237962887,
226,-0.005157475825,
225,-0.005511414725,
224,-0.006453335285,
223,-0.006756830961,
222,-0.007326586638,
221,-0.007829600945,
220,-0.009609557688,
219,-0.0104316622,
218,-0.01147261448,
217,-0.01174868923,
216,-0.01376921218,
215,-0.01262635458,
214,-0.01598492078,
213,-0.01797177084,
212,-0.02012472786,
211,-0.02359493077,
210,-0.02923518233,
209,-0.03456332162,
208,-0.04285012186,
207,-0.05110613257,
206,-0.06409032643,
205,-0.08648110926,
204,-0.1103167459,
203,-0.1400174648,
202,-0.1678667963,
201,-0.1934726387,
200,-0.2182865441,

